nm       Rad_ref     Rad_target  Reflectance
341.3  29.18  3.89  13.33
342.7  39.91  -2.00  -5.00
344.2  19.57  3.91  20.00
345.6  9.42  5.65  60.00
347.1  8.95  3.58  40.00
348.5  1.00  10.27  1026.90
350.0  7.98  7.98  100.00
351.4  22.57  9.03  40.00
352.9  35.35  4.24  12.00
354.3  25.71  2.57  10.00
355.8  17.82  -1.19  -6.67
357.2  -5.55  0.00  -0.00
358.7  5.24  2.10  40.00
360.1  4.82  6.75  140.00
361.6  13.31  0.89  6.67
363.1  37.98  0.84  2.22
364.5  57.33  0.82  1.43
366.0  66.90  1.57  2.35
367.4  48.13  4.44  9.23
368.9  17.70  1.42  8.00
370.3  3.49  1.39  40.00
371.8  3.54  0.71  20.00
373.2  10.51  1.40  13.33
374.7  13.64  2.05  15.00
376.2  16.99  0.68  4.00
377.6  20.64  0.00  0.00
379.1  13.85  2.77  20.00
380.5  17.09  1.37  8.00
382.0  16.78  0.00  0.00
383.4  16.66  2.00  12.00
384.9  13.49  2.02  15.00
386.4  10.23  2.73  26.67
387.8  16.88  6.75  40.00
389.3  26.44  0.66  2.50
390.7  26.14  3.27  12.50
392.2  26.60  3.33  12.50
393.6  23.98  4.11  17.14
395.1  24.15  2.76  11.43
396.5  27.06  5.41  20.00
398.0  33.10  2.65  8.00
399.5  36.41  6.62  18.18
400.9  100.95  4.04  4.00
402.4  383.07  6.10  1.59
403.8  770.50  3.35  0.43
405.3  848.10  3.30  0.39
406.8  534.60  3.30  0.62
408.2  224.45  5.36  2.39
409.7  125.34  8.13  6.49
411.1  67.80  10.85  16.00
412.6  60.35  9.39  15.56
414.0  66.50  10.64  16.00
415.5  80.10  10.68  13.33
416.9  80.70  8.74  10.83
418.4  83.75  12.06  14.40
419.8  84.76  13.69  16.15
421.3  90.70  16.89  18.62
422.7  95.12  20.21  21.25
424.2  98.96  21.49  21.71
425.6  108.20  22.72  21.00
427.1  112.34  28.22  25.12
428.5  128.14  32.66  25.49
430.0  135.66  36.18  26.67
431.5  182.86  41.03  22.44
432.9  437.33  47.71  10.91
434.4  1893.60  56.81  3.00
435.8  2662.30  67.97  2.55
437.2  2444.81  83.13  3.40
438.7  860.95  98.04  11.39
440.1  246.75  112.45  45.57
441.6  161.36  134.29  83.23
443.0  156.94  157.61  100.43
444.5  153.46  181.86  118.51
445.9  152.40  206.06  135.21
447.4  157.06  229.21  145.94
448.8  162.98  249.08  152.83
450.3  168.13  265.62  157.98
451.7  168.48  277.06  164.44
453.1  170.10  280.98  165.19
454.6  162.48  276.69  170.29
456.0  163.28  267.84  164.04
457.5  161.46  253.37  156.92
458.9  159.90  235.24  147.12
460.4  156.06  216.65  138.82
461.8  150.43  202.31  134.49
463.2  149.04  188.47  126.46
464.7  148.29  177.00  119.36
466.1  155.44  164.42  105.77
467.5  151.58  155.45  102.55
469.0  143.07  145.96  102.02
470.4  132.18  137.27  103.86
471.9  129.36  129.04  99.76
473.3  132.81  122.50  92.24
474.7  132.18  116.31  88.00
476.2  130.83  111.21  85.00
477.6  131.14  106.49  81.20
479.0  153.90  107.89  70.11
480.5  190.90  107.90  56.52
481.9  265.84  105.66  39.75
483.3  423.36  104.50  24.68
484.8  661.34  105.75  15.99
486.2  913.25  111.48  12.21
487.6  1081.41  115.48  10.68
489.0  1116.87  121.78  10.90
490.5  1061.55  127.26  11.99
491.9  970.07  135.15  13.93
493.3  858.11  144.83  16.88
494.8  737.60  152.32  20.65
496.2  631.62  159.18  25.20
497.6  540.23  164.43  30.44
499.0  441.04  171.46  38.88
500.5  328.76  181.19  55.12
501.9  234.63  190.67  81.27
503.3  171.11  200.36  117.09
504.7  131.50  208.95  158.90
506.1  107.44  217.74  202.67
507.6  99.75  226.29  226.86
509.0  93.89  233.86  249.09
510.4  95.31  240.97  252.84
511.8  96.56  248.22  257.06
513.2  100.64  252.60  250.99
514.7  102.06  256.57  251.39
516.1  101.53  259.97  256.06
517.5  99.53  263.11  264.35
518.9  95.64  267.80  280.00
520.3  96.95  275.06  283.71
521.7  94.33  279.47  296.29
523.2  92.05  283.25  307.71
524.6  91.24  286.04  313.52
526.0  98.09  289.98  295.64
527.4  100.24  293.78  293.09
528.8  106.14  296.22  279.08
530.2  120.75  300.18  248.60
531.6  168.00  302.40  180.00
533.0  219.42  305.04  139.02
534.4  279.66  305.97  109.41
535.8  384.93  307.01  79.76
537.2  646.80  307.69  47.57
538.7  1204.98  309.62  25.70
540.1  2404.40  310.93  12.93
541.5  4130.98  314.09  7.60
542.9  5752.00  318.28  5.53
544.3  7078.54  322.77  4.56
545.7  6643.87  327.99  4.94
547.1  5286.26  331.78  6.28
548.5  3036.63  335.75  11.06
549.9  1995.01  340.55  17.07
551.3  1515.15  346.50  22.87
552.7  1156.05  352.80  30.52
554.1  797.80  357.43  44.80
555.5  479.19  362.10  75.57
556.9  281.88  368.28  130.65
558.2  190.73  374.85  196.53
559.7  150.42  377.61  251.04
561.0  129.68  379.02  292.28
562.4  115.65  381.74  330.10
563.8  106.49  384.72  361.29
565.2  98.04  389.20  396.98
566.6  95.34  393.16  412.38
568.0  95.13  399.55  420.00
569.4  92.66  405.67  437.80
570.8  98.31  410.42  417.47
572.2  115.52  416.53  360.59
573.6  162.66  421.56  259.16
575.0  411.06  426.86  103.84
576.3  735.74  433.36  58.90
577.7  1198.79  439.90  36.70
579.1  1380.60  447.69  32.43
580.5  1469.33  455.29  30.99
581.9  1447.61  465.82  32.18
583.2  1494.00  476.59  31.90
584.6  1596.99  486.35  30.45
586.0  1803.53  492.01  27.28
587.4  1867.37  500.17  26.78
588.8  1765.39  507.20  28.73
590.2  1418.59  513.14  36.17
591.5  1354.08  520.07  38.41
592.9  1311.77  525.53  40.06
594.3  1160.25  531.26  45.79
595.7  861.10  536.55  62.31
597.0  757.55  544.18  71.83
598.4  847.67  552.01  65.12
599.8  891.61  559.58  62.76
601.2  786.44  564.92  71.83
602.5  618.24  569.11  92.05
603.9  558.39  574.55  102.89
605.3  629.44  578.86  91.96
606.7  878.98  581.92  66.20
608.0  1701.91  583.18  34.27
609.4  4922.52  584.49  11.87
610.8  8589.09  584.58  6.81
612.1  10199.05  582.29  5.71
613.5  8230.95  580.99  7.06
614.9  5176.50  576.11  11.13
616.2  3251.13  570.41  17.54
617.6  2121.29  565.47  26.66
619.0  1647.20  559.21  33.95
620.3  1506.10  549.49  36.48
621.7  1443.75  540.63  37.45
623.0  1346.48  535.14  39.74
624.4  1234.80  530.78  42.98
625.8  1145.73  522.86  45.64
627.1  1087.56  515.16  47.37
628.5  1200.00  506.24  42.19
629.8  1488.49  498.46  33.49
631.2  1513.85  488.75  32.29
632.6  1213.08  480.91  39.64
633.9  679.58  468.74  68.98
635.3  390.66  459.98  117.75
636.6  276.59  449.79  162.62
638.0  228.90  439.49  192.00
639.3  205.20  429.40  209.26
640.7  193.04  421.65  218.43
642.0  189.50  416.14  219.60
643.4  195.44  405.31  207.38
644.8  205.20  394.44  192.22
646.1  211.46  385.19  182.16
647.5  218.60  375.45  171.75
648.8  280.21  366.02  130.62
650.2  383.17  357.88  93.40
651.5  438.75  346.67  79.01
652.8  402.49  338.33  84.06
654.2  308.68  328.45  106.41
655.5  230.80  319.86  138.58
656.9  185.85  308.92  166.22
658.2  159.03  298.81  187.89
659.6  152.28  291.45  191.39
660.9  188.54  286.67  152.05
662.3  244.93  282.21  115.22
663.6  264.08  275.43  104.30
664.9  243.65  267.79  109.91
666.3  218.75  261.19  119.40
667.6  211.46  253.32  119.79
669.0  193.38  242.16  125.23
670.3  166.13  230.36  138.67
671.6  146.69  220.47  150.30
673.0  129.05  212.27  164.48
674.3  122.38  203.37  166.18
675.6  120.29  196.91  163.70
677.0  127.25  190.66  149.82
678.3  134.10  184.16  137.33
679.6  134.10  176.57  131.67
681.0  131.72  170.12  129.15
682.3  129.34  165.91  128.28
683.6  122.51  160.38  130.91
685.0  128.91  154.24  119.66
686.3  177.20  148.41  83.75
687.6  238.41  144.81  60.74
689.0  239.80  141.68  59.08
690.3  197.10  135.78  68.89
691.6  161.14  131.09  81.35
692.9  162.56  121.81  74.93
694.2  168.48  117.07  69.49
695.6  148.52  114.51  77.10
696.9  107.13  113.55  106.00
698.2  74.73  108.46  145.14
699.5  65.88  104.55  158.71
700.9  63.53  99.95  157.33
702.2  88.83  96.87  109.05
703.5  149.81  93.68  62.54
704.8  288.73  91.89  31.82
706.1  503.10  87.15  17.32
707.5  714.85  81.58  11.41
708.8  802.20  80.22  10.00
710.1  768.60  77.70  10.11
711.4  706.44  73.59  10.42
712.7  591.51  71.15  12.03
714.0  419.89  69.21  16.48
715.3  243.23  66.83  27.48
716.7  112.63  64.60  57.36
718.0  57.65  62.34  108.15
719.3  40.76  59.63  146.32
720.6  36.68  56.96  155.29
721.9  41.23  57.29  138.95
723.2  37.19  52.06  140.00
724.5  33.15  50.83  153.33
725.8  29.02  49.56  170.77
727.1  24.86  47.91  192.73
728.4  25.22  47.68  189.09
729.7  27.87  45.99  165.00
731.0  30.58  44.70  146.15
732.3  28.65  42.98  150.00
733.6  24.20  40.17  166.00
735.0  22.10  39.77  180.00
736.2  22.39  38.31  171.11
737.5  17.64  35.28  200.00
738.8  22.88  33.56  146.67
740.1  28.11  34.24  121.82
741.4  33.28  34.30  103.08
742.7  41.00  31.26  76.25
744.0  38.40  27.65  72.00
745.3  33.22  27.08  81.54
746.6  25.53  24.50  96.00
747.9  25.48  25.98  102.00
749.2  20.38  25.98  127.50
750.5  20.38  24.46  120.00
751.8  17.83  23.95  134.29
753.1  17.87  23.99  134.29
754.4  17.92  25.09  140.00
755.7  15.44  20.58  133.33
756.9  12.94  17.60  136.00
758.2  10.42  17.71  170.00
759.5  1.00  17.87  1786.70
760.8  7.95  21.20  266.67
762.1  18.73  18.73  100.00
763.4  35.04  17.79  50.77
764.7  35.26  16.82  47.69
765.9  27.35  19.69  72.00
767.2  19.32  15.46  80.00
768.5  11.13  12.24  110.00
769.8  8.43  12.36  146.67
771.0  17.04  14.20  83.33
772.3  22.96  15.50  67.50
773.6  20.30  13.92  68.57
774.9  20.55  12.33  60.00
776.1  17.81  11.28  63.33
777.4  12.02  12.02  100.00
778.7  9.12  12.16  133.33
780.0  3.08  9.86  320.00
781.2  -3.12  8.73  -280.00
782.5  1.00  8.20  820.30
783.8  3.20  11.51  360.00
785.0  6.48  11.66  180.00
786.3  3.29  12.48  380.00
787.6  3.33  9.31  280.00
788.8  3.37  7.42  220.00
790.1  3.42  6.16  180.00
791.4  3.47  7.63  220.00
792.6  3.52  9.15  260.00
793.9  3.57  9.29  260.00
795.2  14.50  7.25  50.00
796.4  11.03  5.15  46.67
797.7  14.93  7.47  50.00
798.9  18.96  6.07  32.00
800.2  26.97  6.93  25.71
801.4  23.49  3.92  16.67
802.7  19.90  4.78  24.00
804.0  16.18  4.85  30.00
805.2  8.22  3.29  40.00
806.5  12.53  5.85  46.67
807.7  21.24  7.65  36.00
809.0  25.92  5.18  20.00
810.2  43.95  3.52  8.00
811.5  53.67  0.89  1.67
812.7  54.63  1.82  3.33
813.9  41.69  5.56  13.33
815.2  23.56  6.60  28.00
816.4  4.80  3.84  80.00
817.7  9.75  4.87  50.00
818.9  14.85  4.95  33.33
820.2  5.04  0.00  0.00
821.4  1.00  6.15  615.00
822.6  1.00  7.30  729.75
823.9  5.30  0.00  0.00
825.1  10.79  0.00  0.00
826.3  27.41  1.10  4.00
827.6  11.16  3.35  30.00
828.8  5.67  7.94  140.00
830.1  5.77  2.31  40.00
831.3  11.73  0.00  0.00
832.5  5.97  0.00  0.00
833.8  1.00  4.86  485.80
835.0  -6.18  9.88  -160.00
836.2  -6.28  0.00  -0.00
837.4  1.00  2.56  255.60
838.7  26.01  2.60  10.00
839.9  46.27  -3.97  -8.57
841.1  40.37  2.69  6.67
842.3  27.37  5.47  20.00
843.5  20.88  5.57  26.67
844.8  28.32  8.50  30.00
846.0  7.21  -4.32  -60.00
847.2  -7.34  -5.87  80.00
848.4  1.00  2.99  298.70
849.7  1.00  6.08  608.00
850.9  23.18  12.36  53.33
852.1  15.70  10.99  70.00
853.3  7.98  0.00  0.00
854.5  8.11  0.00  0.00
855.7  16.50  0.00  0.00
856.9  16.77  1.68  10.00
858.1  17.05  6.82  40.00
859.3  8.66  -1.73  -20.00
860.5  1.00  0.00  0.00
861.8  -8.92  1.78  -20.00
863.0  1.00  3.62  361.90
864.2  1.00  5.50  550.35
865.4  1.00  0.00  0.00
866.6  1.00  -1.89  -188.85
867.8  19.15  1.91  10.00
869.0  1.00  15.53  1552.80
870.2  9.85  7.88  80.00
871.4  1.00  2.00  199.80
872.6  1.00  6.08  608.10
873.8  10.28  0.00  0.00
875.0  10.42  8.34  80.00
876.1  1.00  0.00  0.00
877.3  21.42  4.28  20.00
878.5  21.74  0.00  0.00
879.7  11.01  0.00  0.00
880.9  1.00  6.70  670.05
882.1  1.00  9.08  907.60
883.3  -11.51  0.00  -0.00
884.5  11.68  9.35  80.00
885.6  1.00  -2.37  -237.10
886.8  1.00  -4.82  -481.70
888.0  1.00  4.89  489.30
889.2  12.42  0.00  0.00
890.4  25.22  12.61  50.00
891.5  1.00  0.00  0.00
892.7  -13.03  0.00  -0.00
893.9  -26.49  0.00  -0.00
895.1  1.00  16.13  1613.40
896.2  41.05  10.95  26.67
897.4  13.92  16.70  120.00
898.6  1.00  2.83  283.25
899.8  1.00  2.88  288.20
900.9  14.65  -2.93  -20.00
902.1  1.00  0.00  0.00
903.3  15.17  6.07  40.00
904.4  1.00  0.00  0.00
905.6  -15.69  0.00  -0.00
906.8  1.00  3.19  319.20
907.9  1.00  6.50  649.60
909.1  16.50  13.20  80.00
910.3  1.00  -10.05  -1005.30
911.4  34.09  0.00  0.00
912.6  34.63  -6.93  -20.00
913.7  17.59  7.03  40.00
914.9  1.00  10.71  1071.30
916.0  18.15  14.52  80.00
917.2  1.00  0.00  0.00
918.4  1.00  -15.00  -1499.80
919.5  19.05  0.00  0.00
920.7  38.72  -3.87  -10.00
921.8  1.00  0.00  0.00
923.0  -20.01  0.00  -0.00
924.1  1.00  0.00  0.00
925.3  20.70  24.84  120.00
926.4  1.00  4.21  421.20
927.5  -21.45  0.00  -0.00
928.7  1.00  4.37  436.85
929.8  1.00  4.45  445.40
931.0  1.00  -4.54  -454.00
932.1  1.00  4.63  462.90
933.3  1.00  -9.44  -944.40
934.4  24.08  0.00  0.00
935.5  73.64  0.00  0.00
936.7  24.98  -9.99  -40.00
937.8  1.00  -5.09  -509.35
939.0  1.00  5.19  519.10
940.1  52.93  -5.29  -10.00
941.2  53.99  32.39  60.00
942.4  1.00  27.57  2756.50
943.5  -28.23  16.94  -60.00
944.6  1.00  5.78  577.60
945.8  1.00  -29.56  -2956.25
946.9  30.22  -12.09  -40.00
948.0  30.92  18.55  60.00
949.1  -31.67  31.67  -100.00
950.3  -64.92  0.00  -0.00
951.4  1.00  -13.32  -1331.90
952.5  1.00  0.00  0.00
953.6  35.11  7.02  20.00
954.8  1.00  0.00  0.00
955.9  -74.10  14.82  -20.00
957.0  -76.28  -7.63  10.00
958.1  39.21  0.00  0.00
959.2  1.00  16.15  1615.30
960.4  1.00  8.33  832.55
961.5  -85.68  8.57  -10.00
962.6  -88.25  35.30  -40.00
963.7  1.00  45.49  4548.50
964.8  187.73  46.93  25.00
966.0  96.56  9.66  10.00
967.1  99.55  -19.91  -20.00
968.2  -102.72  -10.27  10.00
969.3  -52.89  0.00  -0.00
970.4  -109.20  10.92  -10.00
971.5  1.00  0.00  0.00
972.6  174.23  11.62  6.67
973.8  119.67  47.87  40.00
974.9  1.00  -12.34  -1233.95
976.0  -127.14  -12.71  10.00
977.1  1.00  -26.22  -2622.30
978.2  -67.67  0.00  -0.00
979.3  1.00  27.92  2791.70
980.4  72.03  14.41  20.00
981.5  74.39  74.39  100.00
982.6  76.58  15.32  20.00
983.7  1.00  63.12  6311.80
984.8  -244.66  0.00  -0.00
985.9  1.00  -67.36  -6735.80
987.0  86.81  34.72  40.00
988.1  179.19  0.00  0.00
989.2  1.00  129.58  12958.40
990.3  1.00  76.59  7659.00
991.5  99.15  0.00  0.00
992.5  1.00  -41.24  -4124.40
993.7  1.00  0.00  0.00
994.8  110.69  -44.28  -40.00
995.9  1.00  -45.97  -4596.50
997.0  1.00  -71.92  -7192.35
998.1  1.00  0.00  0.00
999.2  1.00  0.00  0.00
1000.3  135.63  54.25  40.00
1001.4  285.15  0.00  0.00
1002.5  1.00  29.81  2980.50
1003.6  1.00  0.00  0.00
1004.7  1.00  -32.19  -3218.60
1005.8  -333.72  100.11  -30.00
1006.9  1.00  34.32  3431.65
1008.0  174.02  -34.80  -20.00
967.7  28.87  28.87  100.00
971.6  1.00  0.00  0.00
975.4  23.97  0.00  0.00
979.3  1.00  0.00  0.00
983.2  19.45  0.00  0.00
987.0  18.29  0.00  0.00
990.9  1.00  0.00  0.00
994.8  16.41  0.00  0.00
998.6  30.17  0.00  0.00
1002.5  13.96  0.00  0.00
1006.4  26.22  0.00  0.00
1010.2  194.00  0.00  0.00
1014.1  273.81  0.00  0.00
1018.0  237.39  0.00  0.00
1021.8  73.03  0.00  0.00
1025.7  8.84  8.84  100.00
1029.5  1.00  8.74  873.88
1033.4  1.00  0.00  0.00
1037.2  8.32  0.00  0.00
1041.1  1.00  0.00  0.00
1045.0  7.89  0.00  0.00
1048.8  1.00  0.00  0.00
1052.7  7.58  0.00  0.00
1056.5  1.00  7.31  731.00
1060.4  7.19  0.00  0.00
1064.2  1.00  0.00  0.00
1068.1  7.45  0.00  0.00
1071.9  7.57  0.00  0.00
1075.8  7.46  0.00  0.00
1079.6  1.00  0.00  0.00
1083.4  6.80  6.80  100.00
1087.3  6.58  6.58  100.00
1091.1  6.55  0.00  0.00
1095.0  6.49  0.00  0.00
1098.8  6.33  6.33  100.00
1102.7  6.12  0.00  0.00
1106.5  6.06  6.06  100.00
1110.3  1.00  0.00  0.00
1114.2  5.90  5.90  100.00
1118.0  11.49  5.75  50.00
1121.8  22.82  5.71  25.00
1125.7  79.43  0.00  0.00
1129.5  95.26  5.60  5.88
1133.3  83.89  0.00  0.00
1137.2  22.50  0.00  0.00
1141.0  5.56  0.00  0.00
1144.8  10.91  0.00  0.00
1148.6  5.36  5.36  100.00
1152.4  1.00  5.33  532.50
1156.3  5.37  0.00  0.00
1160.1  10.78  0.00  0.00
1163.9  1.00  0.00  0.00
1167.7  5.22  0.00  0.00
1171.6  1.00  0.00  0.00
1175.4  9.87  4.93  50.00
1179.2  9.66  0.00  0.00
1183.0  9.59  0.00  0.00
1186.8  9.64  4.82  50.00
1190.6  4.86  9.72  200.00
1194.4  4.87  4.87  100.00
1198.2  4.85  0.00  0.00
1202.1  4.75  4.75  100.00
1205.9  13.80  0.00  0.00
1209.7  13.49  0.00  0.00
1213.5  4.42  4.42  100.00
1217.3  4.37  4.37  100.00
1221.1  8.76  4.38  50.00
1224.9  13.27  4.42  33.33
1228.7  8.93  0.00  0.00
1232.5  4.44  4.44  100.00
1236.3  4.37  8.75  200.00
1240.1  4.32  0.00  0.00
1243.9  8.50  0.00  0.00
1247.7  4.20  0.00  0.00
1251.5  4.22  0.00  0.00
1255.2  4.24  0.00  0.00
1259.1  1.00  0.00  0.00
1262.8  4.19  0.00  0.00
1266.6  1.00  4.12  412.00
1270.4  1.00  0.00  0.00
1274.2  3.96  0.00  0.00
1278.0  3.93  3.93  100.00
1281.8  3.88  3.88  100.00
1285.6  3.82  0.00  0.00
1289.3  3.79  0.00  0.00
1293.1  3.75  0.00  0.00
1296.9  3.75  3.75  100.00
1300.7  1.00  0.00  0.00
1304.4  1.00  0.00  0.00
1308.2  3.70  3.70  100.00
1312.0  3.64  3.64  100.00
1315.8  1.00  0.00  0.00
1319.5  3.54  3.54  100.00
1323.3  3.60  0.00  0.00
1327.1  3.63  3.63  100.00
1330.8  7.10  0.00  0.00
1334.6  6.81  0.00  0.00
1338.4  6.74  0.00  0.00
1342.1  3.42  0.00  0.00
1345.9  7.00  3.50  50.00
1349.7  10.58  3.53  33.33
1353.4  27.66  0.00  0.00
1357.2  34.34  0.00  0.00
1360.9  38.10  0.00  0.00
1364.7  45.42  3.49  7.69
1368.4  48.70  0.00  0.00
1372.2  38.07  3.46  9.09
1375.9  10.46  0.00  0.00
1379.7  10.56  3.52  33.33
1383.4  3.53  0.00  0.00
1387.2  3.50  0.00  0.00
1390.9  10.41  0.00  0.00
1394.7  10.40  3.47  33.33
1398.4  10.41  3.47  33.33
1402.2  6.94  0.00  0.00
1405.9  3.45  0.00  0.00
1409.7  1.00  0.00  0.00
1413.4  1.00  3.43  342.75
1417.1  1.00  6.85  684.50
1420.9  1.00  3.42  342.00
1424.6  3.45  0.00  0.00
1428.3  3.48  0.00  0.00
1432.1  3.49  0.00  0.00
1435.8  1.00  0.00  0.00
1439.5  3.42  0.00  0.00
1443.2  3.39  3.39  100.00
1447.0  3.37  0.00  0.00
1450.7  3.30  0.00  0.00
1454.4  3.24  3.24  100.00
1458.1  3.19  0.00  0.00
1461.9  1.00  0.00  0.00
1465.6  3.12  3.12  100.00
1469.3  6.19  0.00  0.00
1473.0  3.08  0.00  0.00
1476.7  6.14  0.00  0.00
1480.4  1.00  3.07  307.13
1484.2  1.00  0.00  0.00
1487.9  1.00  3.26  325.63
1491.6  1.00  0.00  0.00
1495.3  3.19  -3.19  -100.00
1499.0  3.13  3.13  100.00
1502.7  3.14  6.29  200.00
1506.4  1.00  0.00  0.00
1510.1  3.24  3.24  100.00
1513.8  3.27  0.00  0.00
1517.5  3.23  0.00  0.00
1521.2  6.33  3.17  50.00
1524.9  43.63  0.00  0.00
1528.6  58.88  0.00  0.00
1532.3  67.93  3.09  4.55
1536.0  33.74  0.00  0.00
1539.7  12.16  0.00  0.00
1543.4  6.08  3.04  50.00
1547.1  3.02  3.02  100.00
1550.7  1.00  0.00  0.00
1554.4  3.00  0.00  0.00
1558.1  1.00  0.00  0.00
1561.8  2.95  0.00  0.00
1565.5  5.88  2.94  50.00
1569.1  1.00  0.00  0.00
1572.8  2.91  0.00  0.00
1576.5  2.90  0.00  0.00
1580.2  2.89  2.89  100.00
1583.8  2.86  2.86  100.00
1587.5  2.84  2.84  100.00
1591.2  1.00  0.00  0.00
1594.8  5.66  0.00  0.00
1598.5  1.00  0.00  0.00
1602.2  5.82  0.00  0.00
1605.8  2.95  2.95  100.00
1609.5  2.99  0.00  0.00
1613.2  1.00  0.00  0.00
1616.8  6.01  3.01  50.00
1620.5  3.02  0.00  0.00
1624.2  1.00  0.00  0.00
1627.8  3.01  0.00  0.00
1631.5  3.02  0.00  0.00
1635.1  3.01  0.00  0.00
1638.8  6.05  0.00  0.00
1642.4  3.03  3.03  100.00
1646.1  3.04  3.04  100.00
1649.7  6.10  0.00  0.00
1653.3  1.00  0.00  0.00
1657.0  3.06  0.00  0.00
1660.6  3.06  0.00  0.00
1664.3  3.08  0.00  0.00
1667.9  3.07  0.00  0.00
1671.6  3.07  0.00  0.00
1675.2  1.00  0.00  0.00
1678.8  3.07  0.00  0.00
1682.4  6.19  0.00  0.00
1686.1  3.11  0.00  0.00
1689.7  9.30  0.00  0.00
1693.3  9.30  0.00  0.00
1697.0  12.30  0.00  0.00
1700.6  9.18  0.00  0.00
1704.2  12.13  6.07  50.00
1707.8  9.01  0.00  0.00
1711.4  9.00  0.00  0.00
1715.1  8.88  0.00  0.00
1718.7  8.88  0.00  0.00
1722.3  5.91  2.96  50.00
1725.9  5.92  0.00  0.00
1729.5  2.97  0.00  0.00
1733.1  2.97  0.00  0.00
1736.7  5.97  0.00  0.00
1740.3  5.96  2.98  50.00
1743.9  2.99  0.00  0.00
1747.6  2.98  0.00  0.00
1751.2  2.96  0.00  0.00
1754.8  5.90  0.00  0.00
1758.3  2.94  2.94  100.00
1761.9  2.93  0.00  0.00
1765.5  2.93  0.00  0.00
1769.1  2.95  0.00  0.00
1772.7  2.96  5.92  200.00
1776.3  3.00  0.00  0.00
1779.9  3.02  0.00  0.00
1783.5  3.04  0.00  0.00
1787.1  6.17  0.00  0.00
1790.7  3.10  0.00  0.00
1794.2  3.15  3.15  100.00
1797.8  3.19  0.00  0.00
1801.4  3.18  3.18  100.00
1805.0  3.17  0.00  0.00
1808.6  6.32  0.00  0.00
1812.1  6.15  0.00  0.00
1815.7  5.82  0.00  0.00
1819.3  8.17  0.00  0.00
1822.8  1.00  2.61  261.13
1826.4  2.59  0.00  0.00
1830.0  2.68  0.00  0.00
1833.5  5.64  2.82  50.00
1837.1  5.93  0.00  0.00
1840.7  1.00  0.00  0.00
1844.2  6.44  0.00  0.00
1847.8  3.32  0.00  0.00
1851.3  3.41  0.00  0.00
1854.9  3.48  3.48  100.00
1858.4  1.00  3.56  356.13
1862.0  3.65  0.00  0.00
1865.5  3.76  0.00  0.00
1869.1  7.76  0.00  0.00
1872.6  7.90  0.00  0.00
1876.2  1.00  0.00  0.00
1879.7  1.00  4.02  402.38
1883.2  8.27  4.13  50.00
1886.8  4.34  4.34  100.00
1890.3  9.17  4.58  50.00
1893.8  4.88  0.00  0.00
1897.4  1.00  0.00  0.00
1900.9  5.82  0.00  0.00
1904.4  6.35  0.00  0.00
1908.0  1.00  0.00  0.00
1911.5  7.35  7.35  100.00
1915.0  1.00  7.92  791.88
1895.4  73.80  -36.90  -50.00
1898.2  31.71  -31.71  -100.00
1900.9  -13.79  -82.74  600.00
1903.7  35.82  -47.76  -133.33
1906.5  10.43  0.00  0.00
1909.2  -9.36  0.00  -0.00
1912.0  34.44  -17.22  -50.00
1914.8  56.35  16.10  28.57
1917.5  37.70  7.54  20.00
1920.2  1.00  -21.21  -2121.00
1923.0  -20.07  -13.38  66.67
1925.8  1.00  6.39  638.50
1928.5  -6.12  0.00  -0.00
1931.2  -11.63  -5.82  50.00
1934.0  -5.50  -5.50  100.00
1936.7  10.33  -15.50  -150.00
1939.4  -4.83  -19.30  400.00
1942.2  -9.11  0.00  -0.00
1944.9  8.70  0.00  0.00
1947.6  16.78  -4.20  -25.00
1950.3  20.30  -8.12  -40.00
1953.1  1.00  7.88  788.00
1955.8  -3.85  15.38  -400.00
1958.5  7.55  18.88  250.00
1961.2  1.00  26.32  2632.00
1963.9  -11.39  18.98  -166.67
1966.6  7.68  3.84  50.00
1969.3  11.49  -7.66  -66.67
1972.0  1.00  -15.14  -1514.00
1974.7  -3.78  7.55  -200.00
1977.4  7.59  7.59  100.00
1980.1  1.00  0.00  0.00
1982.8  7.62  0.00  0.00
1985.5  18.98  -3.80  -20.00
1988.2  11.36  -3.79  -33.33
1990.8  7.61  0.00  0.00
1993.5  19.18  11.51  60.00
1996.2  23.10  -3.85  -16.67
1998.9  19.25  -7.70  -40.00
2001.6  15.44  -11.58  -75.00
2004.2  15.56  -7.78  -50.00
2006.9  1.00  -3.92  -391.50
2009.6  1.00  0.00  0.00
2012.2  -11.76  3.92  -33.33
2014.9  -15.68  3.92  -25.00
2017.5  -23.64  0.00  -0.00
2020.2  3.97  -7.94  -200.00
2022.8  24.00  -4.00  -16.67
2025.5  4.00  8.00  200.00
2028.1  1.00  11.97  1197.00
2030.8  8.00  -12.00  -150.00
2033.4  24.12  -8.04  -33.33
2036.1  20.15  -8.06  -40.00
2038.7  -4.03  4.03  -100.00
2041.3  4.04  8.07  200.00
2043.9  12.23  12.23  100.00
2046.6  1.00  -8.24  -824.00
2049.2  1.00  -20.58  -2057.50
2051.8  1.00  12.33  1233.00
2054.4  8.24  20.60  250.00
2057.1  8.21  8.21  100.00
2059.7  -8.24  12.36  -150.00
2062.3  -8.30  8.30  -100.00
2064.9  -4.15  20.75  -500.00
2067.5  1.00  33.12  3312.00
2070.1  4.13  20.63  500.00
2072.7  4.11  -4.11  -100.00
2075.3  -4.12  -4.12  100.00
2077.9  1.00  16.70  1670.00
2080.5  8.43  8.43  100.00
2083.1  16.74  -4.19  -25.00
2085.7  1.00  -8.31  -831.00
2088.2  -8.28  -4.14  50.00
2090.8  -8.29  8.29  -100.00
2093.4  -12.47  -4.16  33.33
2096.0  -24.72  -20.60  83.33
2098.6  -8.17  -8.17  100.00
2101.1  8.13  16.26  200.00
2103.7  -8.11  4.06  -50.00
2106.3  -4.05  4.05  -100.00
2108.8  -8.07  0.00  -0.00
2111.4  8.10  16.20  200.00
2114.0  4.05  16.20  400.00
2116.5  -12.12  4.04  -33.33
2119.1  1.00  0.00  0.00
2121.6  8.04  -12.06  -150.00
2124.2  4.00  -7.99  -200.00
2126.7  3.97  3.97  100.00
2129.2  7.89  0.00  0.00
2131.8  1.00  0.00  0.00
2134.3  -19.83  0.00  -0.00
2136.9  -15.86  -11.90  75.00
2139.4  -3.95  -11.85  300.00
2141.9  7.88  -7.88  -100.00
2144.5  3.93  -3.93  -100.00
2147.0  -3.93  0.00  -0.00
2149.5  1.00  -19.68  -1967.50
2152.0  1.00  -19.73  -1972.50
2154.5  -3.93  -7.86  200.00
2157.1  -3.93  0.00  -0.00
2159.6  7.86  -3.93  -50.00
2162.1  27.62  19.73  71.43
2164.6  23.70  31.60  133.33
2167.1  7.87  15.74  200.00
2169.6  11.76  0.00  0.00
2172.1  11.81  19.68  166.67
2174.6  3.97  23.82  600.00
2177.1  1.00  7.96  796.00
2179.6  1.00  7.98  798.00
2182.1  4.02  -8.04  -200.00
2184.5  12.21  -12.21  -100.00
2187.0  12.32  -4.11  -33.33
2189.5  1.00  -8.17  -817.00
2192.0  -8.15  -8.15  100.00
2194.4  4.11  -4.11  -100.00
2196.9  8.35  12.53  150.00
2199.4  4.25  21.25  500.00
2201.9  4.31  8.62  200.00
2204.3  1.00  0.00  0.00
2206.8  -8.75  -8.75  100.00
2209.2  8.91  0.00  0.00
2211.7  13.50  0.00  0.00
2214.1  4.48  -4.48  -100.00
2216.6  1.00  0.00  0.00
2219.0  1.00  0.00  0.00
2221.5  8.95  -8.95  -100.00
2223.9  18.02  0.00  0.00
2226.4  18.12  13.59  75.00
2228.8  1.00  18.08  1808.00
2231.2  1.00  4.53  453.00
2233.7  1.00  -4.55  -454.50
2236.1  4.55  -13.65  -300.00
2238.5  -13.73  -4.58  33.33
2241.0  -23.13  -9.25  40.00
2243.4  1.00  4.65  464.50
2245.8  1.00  9.33  933.00
2248.2  -14.09  9.39  -66.67
2250.6  1.00  4.70  469.50
2253.0  -9.38  0.00  -0.00
2255.4  1.00  -14.10  -1410.00
2257.9  4.71  -4.71  -100.00
2260.3  1.00  0.00  0.00
2262.7  14.31  4.77  33.33
2265.1  1.00  -9.69  -969.00
2267.4  1.00  0.00  0.00
2269.8  19.54  0.00  0.00
2272.2  4.90  4.90  100.00
2274.6  1.00  19.56  1956.00
2277.0  -4.86  -9.72  200.00
2279.4  4.87  -9.74  -200.00
2281.8  24.55  24.55  100.00
2284.1  44.42  29.61  66.67
2286.5  24.70  0.00  0.00
2288.9  9.97  0.00  0.00
2291.3  1.00  -10.12  -1012.00
2293.6  -10.15  0.00  -0.00
2296.0  1.00  20.24  2024.00
2298.4  10.16  10.16  100.00
2300.7  15.32  -20.42  -133.33
2303.1  15.36  -10.24  -66.67
2305.4  10.26  15.39  150.00
2307.8  15.44  20.58  133.33
2310.1  10.28  0.00  0.00
2312.5  -5.16  -10.32  200.00
2314.8  20.82  0.00  0.00
2317.1  10.42  0.00  0.00
2319.5  -5.18  -10.36  200.00
2321.8  -20.86  -10.43  50.00
2324.1  -10.57  5.29  -50.00
2326.5  1.00  5.32  531.50
2328.8  1.00  21.14  2114.00
2331.1  10.54  10.54  100.00
2333.4  10.64  10.64  100.00
2335.8  1.00  0.00  0.00
2338.1  -10.77  -21.54  200.00
2340.4  10.80  -16.20  -150.00
2342.7  1.00  -16.26  -1626.00
2345.0  5.43  0.00  0.00
2347.3  10.85  21.70  200.00
2349.6  -10.82  16.23  -150.00
2351.9  -16.26  5.42  -33.33
2354.2  -21.82  0.00  -0.00
2356.5  -5.53  0.00  -0.00
2358.8  -5.61  5.61  -100.00
2361.1  5.62  16.86  300.00
2363.4  1.00  11.18  1118.00
2365.7  1.00  -11.17  -1117.00
2368.0  5.60  0.00  0.00
2370.2  5.60  0.00  0.00
2372.5  -5.63  -11.25  200.00
2374.8  1.00  -5.69  -569.00
2377.1  -5.74  0.00  -0.00
2379.3  -17.13  0.00  -0.00
2381.6  -5.70  22.80  -400.00
2383.9  5.76  23.04  400.00
2386.1  1.00  17.54  1753.50
2388.4  5.90  17.70  300.00
2390.6  5.94  -5.94  -100.00
2392.9  5.98  -17.93  -300.00
2395.1  -24.12  -18.09  75.00
2397.4  -24.30  -6.08  25.00
2399.6  -6.09  0.00  -0.00
2401.9  1.00  12.32  1232.00
2404.1  1.00  25.14  2514.00
2406.4  12.60  25.20  200.00
2408.6  37.74  12.58  33.33
2410.8  31.43  0.00  0.00
2413.1  -12.56  -6.28  50.00
2415.3  -18.95  6.32  -33.33
2417.5  1.00  0.00  0.00
2419.7  12.62  -6.31  -50.00
2421.9  25.40  19.05  75.00
2424.2  32.03  6.41  20.00
2426.4  19.37  -12.91  -66.67
2428.6  -6.56  -13.11  200.00
2430.8  -26.52  13.26  -50.00
2433.0  6.64  19.91  300.00
2435.2  26.64  13.32  50.00
2437.4  13.36  13.36  100.00
2439.6  20.09  33.48  166.67
2441.8  -6.73  13.45  -200.00
2444.0  -33.73  -40.47  120.00
2446.2  -13.59  -54.36  400.00
2448.4  1.00  -27.60  -2760.00
2450.6  28.02  21.02  75.00
2452.7  35.20  42.24  120.00
2454.9  7.07  21.21  300.00
2457.1  -28.66  0.00  -0.00
2459.3  -29.10  14.55  -50.00
2461.4  1.00  36.68  3667.50
2463.6  -14.90  7.45  -50.00
2465.8  -53.45  0.00  -0.00
2467.9  -46.50  -15.50  33.33
2470.1  -7.88  -15.75  200.00
2472.2  8.08  0.00  0.00
2474.4  -8.36  -8.36  100.00
2476.6  17.25  17.25  100.00
2478.7  43.95  17.58  40.00
2480.9  8.97  -26.91  -300.00
2483.0  27.74  -9.25  -33.33
2485.1  38.52  28.89  75.00
2487.3  -10.07  10.07  -100.00
2489.4  1.00  10.53  1053.00
2491.6  -11.03  -11.03  100.00
2493.7  1.00  -34.82  -3481.50
2495.8  -12.10  -12.10  100.00
2497.9  12.52  -25.03  -200.00
2500.1  13.11  -78.63  -600.00
2502.2  1.00  -13.97  -1396.50
2504.3  75.15  90.18  120.00
2506.4  146.30  32.51  22.22
2508.5  52.23  -34.82  -66.67
2510.6  18.53  -37.05  -200.00
2512.8  1.00  -78.72  -7872.00
2514.9  -21.17  -127.02  600.00
2517.0  1.00  69.99  6999.00
